##TITLE= Mattson Instruments
##JCAMP_DX= 4.24
##OWNER= 
##ORIGIN= 
##DATA TYPE= INFRARED SPECTRUM
##YUNITS= % Transmittance
##XUNITS= 1/CM
##FIRSTX= 401.12365566
##FIRSTY= 28.31103897
##LASTX= 3999.66568195
##XFACTOR= 1.00000000
##YFACTOR= 0.00104823
##MINY= 5.41231918
##MAXY= 74.10763549
##DELTAX= 3.85695822
##NPOINTS= 934
##XYDATA= (X++(Y..Y))
401.12  27008 27539 27881 28161 28609 29365 
424.26  30201 30912 31519 32067 32627 33254 
447.40  33879 34399 34838 35241 35520 35604 
470.54  35535 35335 34928 34176 32925 31237 
493.69  29644 28893 29325 30427 31232 31120 
516.83  29810 27400 25073 24898 27882 32586 
539.97  36495 38504 39134 38938 38241 38066 
563.11  39456 41917 43815 44400 44312 44278 
586.25  44351 44389 44428 44540 44671 44783 
609.39  44917 45062 45164 45276 45431 45549 
632.54  45624 45740 45765 45527 45115 44167 
655.68  41647 37610 34289 34457 37876 41151 
678.82  42401 42288 41780 40133 35472 28509 
701.96  24283 27131 34954 41719 44524 44904 
725.10  44611 43709 41685 37692 30929 22504 
748.24  15538 12438 13439 17771 24451 31769 
771.39  37736 41510 43668 44886 45112 44261 
794.53  43059 42545 43056 44184 45420 46423 
817.67  47016 47181 46970 46433 45555 43956 
840.81  41086 37565 35616 36974 40878 45164 
863.95  48576 51065 52737 53668 54161 54508 
887.10  54752 54893 54995 55080 55109 55102 
910.24  55093 55084 55088 55132 55197 55239 
933.38  55205 54979 54251 52770 50796 48926 
956.52  47380 45985 44960 45078 46646 48965 
979.66  51081 52613 53640 54282 54603 54704 
1002.80  54632 54310 53613 52335 50102 46759 
1025.95  43207 41358 42397 45343 48073 49308 
1049.09  49006 47461 44844 41463 37882 34719 
1072.23  32338 30534 28600 25928 22485 18683 
1095.37  15093 12267 10570 10172 11266 14037 
1118.51  18273 23182 27727 31124 33095 33656 
1141.65  32714 30003 25484 19779 14475 11979 
1164.80  14120 20109 26430 29454 28004 23590 
1187.94  19254 18107 21395 27408 33008 36305 
1211.08  37339 36736 34768 31471 26864 21162 
1234.22  15166 10122 6895 5425 5163 5743 
1257.36  7085 9242 12373 16328 19896 21087 
1280.51  18900 14509 10235 7585 6730 7492 
1303.65  9692 12508 14641 15723 17049 20234 
1326.79  25335 30820 34937 37149 38930 42187 
1349.93  46851 51263 54203 55829 56840 57513 
1373.07  57843 57883 57759 57642 57607 57486 
1396.21  57054 56321 55416 54369 53073 51172 
1419.36  47843 42151 33890 24428 17777 17590 
1442.50  21181 23236 22152 20075 20518 23951 
1465.64  28315 32798 35696 33784 27680 21122 
1488.78  18681 22955 29593 34213 37154 40012 
1511.92  42516 43840 44368 44830 45045 44510 
1535.06  43153 40611 36723 32673 28601 23264 
1558.21  16977 13861 14757 16918 17611 15279 
1581.35  11564 8729 7710 8605 10492 11698 
1604.49  11161 9361 7538 6674 7675 10819 
1627.63  15255 20210 25025 28428 29815 29744 
1650.77  28929 27937 26933 25627 23263 19225 
1673.91  14674 11135 8687 7085 6451 6610 
1697.06  7325 9197 12692 17286 23398 31587 
1720.20  39421 44669 48229 51091 53336 54807 
1743.34  55657 56198 56760 57413 57972 58339 
1766.48  58605 59043 59876 60874 61642 62102 
1789.62  62375 62561 62698 62794 62872 63066 
1812.77  63542 64195 64736 65139 65662 66361 
1835.91  66973 67370 67689 68099 68556 68873 
1859.05  68943 68808 68609 68469 68388 68280 
1882.19  68080 67767 67324 66756 66119 65467 
1905.33  64806 64141 63497 62880 62371 62163 
1928.47  62341 62753 63187 63552 63885 64259 
1951.62  64710 65240 65865 66603 67402 68139 
1974.76  68710 69066 69181 69084 68901 68779 
1997.90  68766 68817 68871 68893 68871 68801 
2021.04  68659 68414 68052 67599 67124 66718 
2044.18  66450 66354 66404 66533 66685 66869 
2067.32  67118 67430 67757 68027 68175 68179 
2090.47  68095 68027 68060 68206 68406 68570 
2113.61  68636 68624 68610 68635 68651 68576 
2136.75  68400 68201 68070 68068 68202 68404 
2159.89  68572 68690 68840 69076 69361 69617 
2183.03  69809 69945 70059 70159 70201 70139 
2206.18  69984 69799 69654 69594 69644 69790 
2229.32  69973 70128 70228 70286 70298 70235 
2252.46  70102 69980 69951 70003 70048 70010 
2275.60  69881 69691 69501 69393 69398 69436 
2298.74  69404 69308 69223 69151 69011 68761 
2321.88  68463 68207 68021 67868 67767 67808 
2345.03  67932 67920 67641 67182 66805 66652 
2368.17  66685 66946 67441 68007 68441 68634 
2391.31  68621 68780 68940 69100 69260 69419 
2414.45  69579 69739 69898 70058 70218 70377 
2437.59  70537 70697 70617 70456 70207 69915 
2460.73  69666 69522 69480 69471 69412 69270 
2483.88  69089 68947 68898 68947 69076 69269 
2507.02  69502 69721 69855 69864 69737 69465 
2530.16  69064 68639 68343 68264 68375 68591 
2553.30  68851 69120 69357 69513 69566 69520 
2576.44  69368 69091 68727 68399 68241 68295 
2599.58  68492 68724 68922 69067 69170 69228 
2622.73  69209 69078 68816 68412 67867 67258 
2645.87  66738 66425 66316 66368 66576 66927 
2669.01  67323 67630 67792 67873 67983 68171 
2692.15  68395 68610 68821 69023 69156 69158 
2715.29  69028 68810 68554 68332 68244 68349 
2738.44  68596 68861 69060 69203 69302 69302 
2761.58  69140 68839 68482 68147 67873 67656 
2784.72  67444 67167 66824 66506 66307 66238 
2807.86  66254 66318 66365 66292 66022 65430 
2831.00  64148 61842 58982 56964 56942 58666 
2854.14  60835 62424 63289 63670 63660 63222 
2877.29  62444 61606 60987 60584 60079 59256 
2900.43  58407 58119 58608 59436 59979 59963 
2923.57  59410 58311 56519 53688 49331 43587 
2946.71  38194 35860 37943 43093 48565 52490 
2969.85  54575 55201 54653 53135 51015 48840 
2992.99  47165 46390 46650 47708 48967 49750 
3016.14  49722 49033 48117 47507 47713 48875 
3039.28  50525 51948 52690 52739 52485 52522 
3062.42  53106 53726 53681 53187 53353 54909 
3085.56  57387 59777 61523 62623 63226 63478 
3108.70  63551 63572 63563 63517 63478 63498 
3131.85  63537 63479 63262 62958 62695 62522 
3154.99  62352 62034 61470 60733 60076 59763 
3178.13  59890 60377 61066 61758 62239 62414 
3201.27  62406 62437 62604 62822 62974 63054 
3224.41  63097 63044 62791 62378 61970 61645 
3247.55  61336 61005 60695 60402 60038 59536 
3270.70  58898 58169 57454 56909 56597 56391 
3293.84  56086 55576 54871 53984 52933 51809 
3316.98  50686 49473 47981 46122 43911 41327 
3340.12  38348 35036 31497 27827 24188 20863 
3363.26  18175 16351 15455 15547 16855 19592 
3386.40  23575 28173 32623 36407 39407 41727 
3409.55  43470 44648 45222 45178 44574 43483 
3432.69  41954 40050 37876 35540 33124 30648 
3455.83  28066 25364 22661 20176 18114 16622 
3478.97  15817 15782 16568 18256 20972 24739 
3502.11  29296 34157 38876 43164 46887 50044 
3525.25  52691 54820 56413 57542 58361 59046 
3548.40  59734 60415 60943 61214 61335 61599 
3571.54  62097 62578 62841 62918 62992 63181 
3594.68  63413 63588 63686 63700 63623 63558 
3617.82  63651 63844 63977 64109 64413 64760 
3640.96  64914 64860 64899 65346 66028 66612 
3664.11  66874 66780 66723 67214 67887 68205 
3687.25  68219 68356 68758 69080 69099 68935 
3710.39  68865 68950 69033 69038 68962 68778 
3733.53  68537 68385 68311 68192 68152 68423 
3756.67  68840 69132 69264 69334 69362 69300 
3779.81  69218 69268 69415 69417 69128 68725 
3802.96  68617 68800 68845 68573 68294 68456 
3826.10  68792 68756 68323 68052 68235 68352 
3849.24  68137 67994 68291 68590 68538 68363 
3872.38  68428 68601 68608 68534 68635 68809 
3895.52  68726 68353 68123 68254 68406 68364 
3918.66  68282 68354 68514 68660 68832 69044 
3941.81  69230 69373 69505 69608 69621 69528 
3964.95  69389 69286 69252 69265 69302 69367 
3988.09  69448 69510 69555 69618 
##END= 
